# energy [H], band-resolved DOS
   -5.856558    0.001564
   -5.841218    0.001602
   -5.825879    0.001642
   -5.810539    0.001683
   -5.795199    0.001726
   -5.779859    0.001770
   -5.764519    0.001816
   -5.749179    0.001864
   -5.733840    0.001914
   -5.718500    0.001966
   -5.703160    0.002020
   -5.687820    0.002077
   -5.672480    0.002135
   -5.657141    0.002197
   -5.641801    0.002261
   -5.626461    0.002327
   -5.611121    0.002397
   -5.595781    0.002470
   -5.580442    0.002546
   -5.565102    0.002626
   -5.549762    0.002710
   -5.534422    0.002798
   -5.519082    0.002890
   -5.503743    0.002987
   -5.488403    0.003089
   -5.473063    0.003196
   -5.457723    0.003309
   -5.442383    0.003427
   -5.427044    0.003553
   -5.411704    0.003685
   -5.396364    0.003825
   -5.381024    0.003973
   -5.365684    0.004130
   -5.350345    0.004296
   -5.335005    0.004472
   -5.319665    0.004660
   -5.304325    0.004859
   -5.288985    0.005072
   -5.273646    0.005299
   -5.258306    0.005541
   -5.242966    0.005801
   -5.227626    0.006079
   -5.212286    0.006378
   -5.196946    0.006699
   -5.181607    0.007045
   -5.166267    0.007419
   -5.150927    0.007823
   -5.135587    0.008262
   -5.120247    0.008738
   -5.104908    0.009256
   -5.089568    0.009822
   -5.074228    0.010442
   -5.058888    0.011122
   -5.043548    0.011871
   -5.028209    0.012698
   -5.012869    0.013615
   -4.997529    0.014634
   -4.982189    0.015773
   -4.966849    0.017049
   -4.951510    0.018488
   -4.936170    0.020116
   -4.920830    0.021969
   -4.905490    0.024090
   -4.890150    0.026534
   -4.874811    0.029370
   -4.859471    0.032685
   -4.844131    0.036596
   -4.828791    0.041252
   -4.813451    0.046856
   -4.798112    0.053684
   -4.782772    0.062121
   -4.767432    0.072713
   -4.752092    0.086262
   -4.736752    0.103980
   -4.721413    0.127768
   -4.706073    0.160748
   -4.690733    0.208333
   -4.675393    0.280591
   -4.660053    0.397992
   -4.644713    0.607484
   -4.629374    1.036847
   -4.614034    2.138549
   -4.598694    6.427840
   -4.583354   35.171452
   -4.568014   11.637595
   -4.552675    3.046120
   -4.537335    1.323662
   -4.521995    0.731268
   -4.506655    0.462041
   -4.491315    0.317870
   -4.475976    0.231890
   -4.460636    0.176565
   -4.445296    0.138894
   -4.429956    0.112100
   -4.414616    0.092368
   -4.399277    0.077419
   -4.383937    0.065824
   -4.368597    0.056650
   -4.353257    0.049268
   -4.337917    0.043240
   -4.322578    0.038253
   -4.307238    0.034082
   -4.291898    0.030558
   -4.276558    0.027553
   -4.261218    0.024970
   -4.245879    0.022734
   -4.230539    0.020786
   -4.215199    0.019077
   -4.199859    0.017571
   -4.184519    0.016237
   -4.169180    0.015049
   -4.153840    0.013986
   -4.138500    0.013032
   -4.123160    0.012173
   -4.107820    0.011396
   -4.092481    0.010691
   -4.077141    0.010049
   -4.061801    0.009464
   -4.046461    0.008928
   -4.031121    0.008437
   -4.015781    0.007984
   -4.000442    0.007568
   -3.985102    0.007183
   -3.969762    0.006827
   -3.954422    0.006496
   -3.939082    0.006189
   -3.923743    0.005904
   -3.908403    0.005637
   -3.893063    0.005388
   -3.877723    0.005156
   -3.862383    0.004938
   -3.847044    0.004734
   -3.831704    0.004542
   -3.816364    0.004361
   -3.801024    0.004191
   -3.785684    0.004031
   -3.770345    0.003880
   -3.755005    0.003737
   -3.739665    0.003602
   -3.724325    0.003474
   -3.708985    0.003353
   -3.693646    0.003238
   -3.678306    0.003129
   -3.662966    0.003025
   -3.647626    0.002926
   -3.632286    0.002832
   -3.616947    0.002743
   -3.601607    0.002657
   -3.586267    0.002576
   -3.570927    0.002498
   -3.555587    0.002424
   -3.540248    0.002353
   -3.524908    0.002285
   -3.509568    0.002220
   -3.494228    0.002158
   -3.478888    0.002098
   -3.463548    0.002041
   -3.448209    0.001986
   -3.432869    0.001933
   -3.417529    0.001883
   -3.402189    0.001834
   -3.386849    0.001787
   -3.371510    0.001742
   -3.356170    0.001699
   -3.340830    0.001657
   -3.325490    0.001617
   -3.310150    0.001578
   -3.294811    0.001541
   -3.279471    0.001504
   -3.264131    0.001470
   -3.248791    0.001436
   -3.233451    0.001403
   -3.218112    0.001372
   -3.202772    0.001342
   -3.187432    0.001312
   -3.172092    0.001284
   -3.156752    0.001256
   -3.141413    0.001230
   -3.126073    0.001204
   -3.110733    0.001179
   -3.095393    0.001155
   -3.080053    0.001131
   -3.064714    0.001108
   -3.049374    0.001086
   -3.034034    0.001065
   -3.018694    0.001044
   -3.003354    0.001024
   -2.988015    0.001004
   -2.972675    0.000985
   -2.957335    0.000967
   -2.941995    0.000949
   -2.926655    0.000931
   -2.911315    0.000914
   -2.895976    0.000897
   -2.880636    0.000881
   -2.865296    0.000866
   -2.849956    0.000850
   -2.834616    0.000835
   -2.819277    0.000821
   -2.803937    0.000807
   -2.788597    0.000793
   -2.773257    0.000780
   -2.757917    0.000767
   -2.742578    0.000754
   -2.727238    0.000741
   -2.711898    0.000729
   -2.696558    0.000717
   -2.681218    0.000706
   -2.665879    0.000695
   -2.650539    0.000684
   -2.635199    0.000673
   -2.619859    0.000662
   -2.604519    0.000652
   -2.589180    0.000642
   -2.573840    0.000632
   -2.558500    0.000623
   -2.543160    0.000614
   -2.527820    0.000604
   -2.512481    0.000595
   -2.497141    0.000587
   -2.481801    0.000578
   -2.466461    0.000570
   -2.451121    0.000562
   -2.435782    0.000554
   -2.420442    0.000546
   -2.405102    0.000538
   -2.389762    0.000531
   -2.374422    0.000523
   -2.359083    0.000516
   -2.343743    0.000509
   -2.328403    0.000502
   -2.313063    0.000495
   -2.297723    0.000489
   -2.282383    0.000482
   -2.267044    0.000476
   -2.251704    0.000470
   -2.236364    0.000463
   -2.221024    0.000457
   -2.205684    0.000452
   -2.190345    0.000446
   -2.175005    0.000440
   -2.159665    0.000435
   -2.144325    0.000429
   -2.128985    0.000424
   -2.113646    0.000418
   -2.098306    0.000413
   -2.082966    0.000408
   -2.067626    0.000403
   -2.052286    0.000398
   -2.036947    0.000394
   -2.021607    0.000389
   -2.006267    0.000384
   -1.990927    0.000380
   -1.975587    0.000375
   -1.960248    0.000371
   -1.944908    0.000367
   -1.929568    0.000362
   -1.914228    0.000358
   -1.898888    0.000354
   -1.883549    0.000350
   -1.868209    0.000346
   -1.852869    0.000342
   -1.837529    0.000338
   -1.822189    0.000335
   -1.806850    0.000331
   -1.791510    0.000327
   -1.776170    0.000324
   -1.760830    0.000320
   -1.745490    0.000317
   -1.730150    0.000313
   -1.714811    0.000310
   -1.699471    0.000307
   -1.684131    0.000304
   -1.668791    0.000300
   -1.653451    0.000297
   -1.638112    0.000294
   -1.622772    0.000291
   -1.607432    0.000288
   -1.592092    0.000285
   -1.576752    0.000282
   -1.561413    0.000279
   -1.546073    0.000277
   -1.530733    0.000274
   -1.515393    0.000271
   -1.500053    0.000268
   -1.484714    0.000266
   -1.469374    0.000263
   -1.454034    0.000261
   -1.438694    0.000258
   -1.423354    0.000255
   -1.408015    0.000253
   -1.392675    0.000251
   -1.377335    0.000248
   -1.361995    0.000246
   -1.346655    0.000244
   -1.331316    0.000241
   -1.315976    0.000239
   -1.300636    0.000237
   -1.285296    0.000235
   -1.269956    0.000232
   -1.254617    0.000230
   -1.239277    0.000228
   -1.223937    0.000226
   -1.208597    0.000224
   -1.193257    0.000222
   -1.177917    0.000220
   -1.162578    0.000218
   -1.147238    0.000216
   -1.131898    0.000214
   -1.116558    0.000212
   -1.101218    0.000210
   -1.085879    0.000209
   -1.070539    0.000207
   -1.055199    0.000205
   -1.039859    0.000203
   -1.024519    0.000201
   -1.009180    0.000200
   -0.993840    0.000198
   -0.978500    0.000196
   -0.963160    0.000195
   -0.947820    0.000193
   -0.932481    0.000191
   -0.917141    0.000190
   -0.901801    0.000188
   -0.886461    0.000187
   -0.871121    0.000185
   -0.855782    0.000184
   -0.840442    0.000182
   -0.825102    0.000181
   -0.809762    0.000179
   -0.794422    0.000178
   -0.779083    0.000176
   -0.763743    0.000175
   -0.748403    0.000173
   -0.733063    0.000172
   -0.717723    0.000171
   -0.702384    0.000169
   -0.687044    0.000168
   -0.671704    0.000167
   -0.656364    0.000165
   -0.641024    0.000164
   -0.625685    0.000163
   -0.610345    0.000162
   -0.595005    0.000160
   -0.579665    0.000159
   -0.564325    0.000158
   -0.548985    0.000157
   -0.533646    0.000155
   -0.518306    0.000154
   -0.502966    0.000153
   -0.487626    0.000152
   -0.472286    0.000151
   -0.456947    0.000150
   -0.441607    0.000149
   -0.426267    0.000148
   -0.410927    0.000146
   -0.395587    0.000145
   -0.380248    0.000144
   -0.364908    0.000143
   -0.349568    0.000142
   -0.334228    0.000141
   -0.318888    0.000140
   -0.303549    0.000139
   -0.288209    0.000138
   -0.272869    0.000137
   -0.257529    0.000136
   -0.242189    0.000135
   -0.226850    0.000134
   -0.211510    0.000133
   -0.196170    0.000132
   -0.180830    0.000132
   -0.165490    0.000131
   -0.150151    0.000130
   -0.134811    0.000129
   -0.119471    0.000128
   -0.104131    0.000127
   -0.088791    0.000126
   -0.073452    0.000125
   -0.058112    0.000125
   -0.042772    0.000124
   -0.027432    0.000123
   -0.012092    0.000122
    0.003248    0.000121
    0.018587    0.000120
    0.033927    0.000120
    0.049267    0.000119
    0.064607    0.000118
    0.079947    0.000117
    0.095286    0.000116
    0.110626    0.000116
    0.125966    0.000115
    0.141306    0.000114
    0.156646    0.000113
    0.171985    0.000113
    0.187325    0.000112
    0.202665    0.000111
    0.218005    0.000111
    0.233345    0.000110
    0.248684    0.000109
    0.264024    0.000109
    0.279364    0.000108
    0.294704    0.000107
    0.310044    0.000106
    0.325383    0.000106
    0.340723    0.000105
    0.356063    0.000104
    0.371403    0.000104
    0.386743    0.000103
    0.402082    0.000103
    0.417422    0.000102
    0.432762    0.000101
    0.448102    0.000101
    0.463442    0.000100
    0.478781    0.000099
    0.494121    0.000099
    0.509461    0.000098
    0.524801    0.000098
    0.540141    0.000097
    0.555480    0.000097
    0.570820    0.000096
    0.586160    0.000095
    0.601500    0.000095
    0.616840    0.000094
    0.632180    0.000094
    0.647519    0.000093
    0.662859    0.000093
    0.678199    0.000092
    0.693539    0.000092
    0.708879    0.000091
    0.724218    0.000090
    0.739558    0.000090
    0.754898    0.000089
    0.770238    0.000089
    0.785578    0.000088
    0.800917    0.000088
    0.816257    0.000087
    0.831597    0.000087
    0.846937    0.000086
    0.862277    0.000086
    0.877616    0.000085
    0.892956    0.000085
    0.908296    0.000085
    0.923636    0.000084
    0.938976    0.000084
    0.954315    0.000083
    0.969655    0.000083
    0.984995    0.000082
    1.000335    0.000082
    1.015675    0.000081
    1.031014    0.000081
    1.046354    0.000080
    1.061694    0.000080
    1.077034    0.000080
    1.092374    0.000079
    1.107713    0.000079
    1.123053    0.000078
    1.138393    0.000078
    1.153733    0.000077
    1.169073    0.000077
    1.184413    0.000077
    1.199752    0.000076
    1.215092    0.000076
    1.230432    0.000075
    1.245772    0.000075
    1.261112    0.000075
    1.276451    0.000074
    1.291791    0.000074
    1.307131    0.000073
    1.322471    0.000073
    1.337811    0.000073
    1.353150    0.000072
    1.368490    0.000072
    1.383830    0.000072
    1.399170    0.000071
    1.414510    0.000071
    1.429849    0.000070
    1.445189    0.000070
    1.460529    0.000070
    1.475869    0.000069
    1.491209    0.000069
    1.506548    0.000069
    1.521888    0.000068
    1.537228    0.000068
    1.552568    0.000068
    1.567908    0.000067
    1.583247    0.000067
    1.598587    0.000067
    1.613927    0.000066
    1.629267    0.000066
    1.644607    0.000066
    1.659946    0.000065
    1.675286    0.000065
    1.690626    0.000065
    1.705966    0.000064
    1.721306    0.000064
    1.736646    0.000064
    1.751985    0.000064
    1.767325    0.000063
    1.782665    0.000063
    1.798005    0.000063
