# energy [H], total DOS
   -5.856558    0.007060
   -5.841218    0.007167
   -5.825879    0.007277
   -5.810539    0.007391
   -5.795199    0.007508
   -5.779859    0.007629
   -5.764519    0.007754
   -5.749179    0.007883
   -5.733840    0.008017
   -5.718500    0.008155
   -5.703160    0.008297
   -5.687820    0.008445
   -5.672480    0.008598
   -5.657141    0.008756
   -5.641801    0.008920
   -5.626461    0.009090
   -5.611121    0.009267
   -5.595781    0.009451
   -5.580442    0.009642
   -5.565102    0.009841
   -5.549762    0.010048
   -5.534422    0.010264
   -5.519082    0.010489
   -5.503743    0.010723
   -5.488403    0.010969
   -5.473063    0.011225
   -5.457723    0.011494
   -5.442383    0.011775
   -5.427044    0.012070
   -5.411704    0.012380
   -5.396364    0.012705
   -5.381024    0.013047
   -5.365684    0.013408
   -5.350345    0.013788
   -5.335005    0.014189
   -5.319665    0.014613
   -5.304325    0.015062
   -5.288985    0.015539
   -5.273646    0.016044
   -5.258306    0.016581
   -5.242966    0.017154
   -5.227626    0.017764
   -5.212286    0.018416
   -5.196946    0.019115
   -5.181607    0.019864
   -5.166267    0.020669
   -5.150927    0.021536
   -5.135587    0.022472
   -5.120247    0.023485
   -5.104908    0.024583
   -5.089568    0.025778
   -5.074228    0.027080
   -5.058888    0.028505
   -5.043548    0.030068
   -5.028209    0.031788
   -5.012869    0.033689
   -4.997529    0.035796
   -4.982189    0.038143
   -4.966849    0.040766
   -4.951510    0.043713
   -4.936170    0.047041
   -4.920830    0.050820
   -4.905490    0.055135
   -4.890150    0.060096
   -4.874811    0.065840
   -4.859471    0.072543
   -4.844131    0.080435
   -4.828791    0.089816
   -4.813451    0.101090
   -4.798112    0.114807
   -4.782772    0.131733
   -4.767432    0.152957
   -4.752092    0.180077
   -4.736752    0.215503
   -4.721413    0.263019
   -4.706073    0.328832
   -4.690733    0.423703
   -4.675393    0.567621
   -4.660053    0.801189
   -4.644713    1.217389
   -4.629374    2.068733
   -4.614034    4.246281
   -4.598694   12.673205
   -4.583354   69.348970
   -4.568014   23.758670
   -4.552675    6.172831
   -4.537335    2.677460
   -4.521995    1.480658
   -4.506655    0.938120
   -4.491315    0.648090
   -4.475976    0.475362
   -4.460636    0.364354
   -4.445296    0.288864
   -4.429956    0.235242
   -4.414616    0.195813
   -4.399277    0.165994
   -4.383937    0.142914
   -4.368597    0.124698
   -4.353257    0.110082
   -4.337917    0.098186
   -4.322578    0.088386
   -4.307238    0.080226
   -4.291898    0.073369
   -4.276558    0.067559
   -4.261218    0.062603
   -4.245879    0.058348
   -4.230539    0.054676
   -4.215199    0.051492
   -4.199859    0.048721
   -4.184519    0.046302
   -4.169180    0.044184
   -4.153840    0.042328
   -4.138500    0.040698
   -4.123160    0.039267
   -4.107820    0.038010
   -4.092481    0.036909
   -4.077141    0.035945
   -4.061801    0.035106
   -4.046461    0.034378
   -4.031121    0.033752
   -4.015781    0.033219
   -4.000442    0.032771
   -3.985102    0.032402
   -3.969762    0.032106
   -3.954422    0.031879
   -3.939082    0.031717
   -3.923743    0.031616
   -3.908403    0.031574
   -3.893063    0.031589
   -3.877723    0.031658
   -3.862383    0.031782
   -3.847044    0.031958
   -3.831704    0.032186
   -3.816364    0.032466
   -3.801024    0.032798
   -3.785684    0.033183
   -3.770345    0.033621
   -3.755005    0.034114
   -3.739665    0.034664
   -3.724325    0.035271
   -3.708985    0.035939
   -3.693646    0.036670
   -3.678306    0.037468
   -3.662966    0.038335
   -3.647626    0.039276
   -3.632286    0.040297
   -3.616947    0.041401
   -3.601607    0.042595
   -3.586267    0.043885
   -3.570927    0.045281
   -3.555587    0.046789
   -3.540248    0.048420
   -3.524908    0.050185
   -3.509568    0.052097
   -3.494228    0.054169
   -3.478888    0.056419
   -3.463548    0.058863
   -3.448209    0.061525
   -3.432869    0.064427
   -3.417529    0.067598
   -3.402189    0.071070
   -3.386849    0.074881
   -3.371510    0.079075
   -3.356170    0.083702
   -3.340830    0.088824
   -3.325490    0.094510
   -3.310150    0.100847
   -3.294811    0.107936
   -3.279471    0.115899
   -3.264131    0.124885
   -3.248791    0.135076
   -3.233451    0.146695
   -3.218112    0.160023
   -3.202772    0.175409
   -3.187432    0.193301
   -3.172092    0.214273
   -3.156752    0.239074
   -3.141413    0.268697
   -3.126073    0.304476
   -3.110733    0.348245
   -3.095393    0.402571
   -3.080053    0.471147
   -3.064714    0.559426
   -3.049374    0.675746
   -3.034034    0.833366
   -3.018694    1.054404
   -3.003354    1.378004
   -2.988015    1.878829
   -2.972675    2.713908
   -2.957335    4.260688
   -2.941995    7.620597
   -2.926655   17.166237
   -2.911315   62.666072
   -2.895976  225.557280
   -2.880636   42.223090
   -2.865296   13.570668
   -2.849956    6.480036
   -2.834616    3.768177
   -2.819277    2.459475
   -2.803937    1.731328
   -2.788597    1.285452
   -2.773257    0.992954
   -2.757917    0.790857
   -2.742578    0.645454
   -2.727238    0.537394
   -2.711898    0.454922
   -2.696558    0.390570
   -2.681218    0.339407
   -2.665879    0.298071
   -2.650539    0.264208
   -2.635199    0.236128
   -2.619859    0.212595
   -2.604519    0.192684
   -2.589180    0.175696
   -2.573840    0.161093
   -2.558500    0.148455
   -2.543160    0.137451
   -2.527820    0.127817
   -2.512481    0.119340
   -2.497141    0.111848
   -2.481801    0.105200
   -2.466461    0.099278
   -2.451121    0.093987
   -2.435782    0.089244
   -2.420442    0.084982
   -2.405102    0.081142
   -2.389762    0.077677
   -2.374422    0.074543
   -2.359083    0.071704
   -2.343743    0.069131
   -2.328403    0.066794
   -2.313063    0.064672
   -2.297723    0.062744
   -2.282383    0.060992
   -2.267044    0.059400
   -2.251704    0.057955
   -2.236364    0.056645
   -2.221024    0.055459
   -2.205684    0.054387
   -2.190345    0.053421
   -2.175005    0.052554
   -2.159665    0.051779
   -2.144325    0.051090
   -2.128985    0.050483
   -2.113646    0.049952
   -2.098306    0.049494
   -2.082966    0.049105
   -2.067626    0.048781
   -2.052286    0.048521
   -2.036947    0.048321
   -2.021607    0.048179
   -2.006267    0.048095
   -1.990927    0.048066
   -1.975587    0.048090
   -1.960248    0.048168
   -1.944908    0.048298
   -1.929568    0.048479
   -1.914228    0.048712
   -1.898888    0.048996
   -1.883549    0.049332
   -1.868209    0.049719
   -1.852869    0.050158
   -1.837529    0.050650
   -1.822189    0.051196
   -1.806850    0.051797
   -1.791510    0.052454
   -1.776170    0.053168
   -1.760830    0.053942
   -1.745490    0.054778
   -1.730150    0.055677
   -1.714811    0.056643
   -1.699471    0.057678
   -1.684131    0.058785
   -1.668791    0.059969
   -1.653451    0.061233
   -1.638112    0.062581
   -1.622772    0.064018
   -1.607432    0.065549
   -1.592092    0.067182
   -1.576752    0.068920
   -1.561413    0.070773
   -1.546073    0.072748
   -1.530733    0.074854
   -1.515393    0.077099
   -1.500053    0.079496
   -1.484714    0.082056
   -1.469374    0.084793
   -1.454034    0.087721
   -1.438694    0.090856
   -1.423354    0.094218
   -1.408015    0.097827
   -1.392675    0.101708
   -1.377335    0.105886
   -1.361995    0.110391
   -1.346655    0.115258
   -1.331316    0.120526
   -1.315976    0.126240
   -1.300636    0.132450
   -1.285296    0.139216
   -1.269956    0.146606
   -1.254617    0.154700
   -1.239277    0.163592
   -1.223937    0.173390
   -1.208597    0.184225
   -1.193257    0.196251
   -1.177917    0.209653
   -1.162578    0.224653
   -1.147238    0.241524
   -1.131898    0.260597
   -1.116558    0.282286
   -1.101218    0.307105
   -1.085879    0.335706
   -1.070539    0.368924
   -1.055199    0.407844
   -1.039859    0.453898
   -1.024519    0.509010
   -1.009180    0.575820
   -0.993840    0.658039
   -0.978500    0.761028
   -0.963160    0.892810
   -0.947820    1.065893
   -0.932481    1.300833
   -0.917141    1.633818
   -0.901801    2.134818
   -0.886461    2.958890
   -0.871121    4.532596
   -0.855782    8.586932
   -0.840442   26.410610
   -0.825102   53.651237
   -0.809762   41.854391
   -0.794422   75.135306
   -0.779083  129.947852
   -0.763743  151.001260
   -0.748403   82.814296
   -0.733063   21.290620
   -0.717723    9.919825
   -0.702384    6.480288
   -0.687044    6.705246
   -0.671704    9.861576
   -0.656364    8.536601
   -0.641024   11.711873
   -0.625685   13.243281
   -0.610345   12.667722
   -0.595005   15.875534
   -0.579665   27.547937
   -0.564325   21.877574
   -0.548985    5.718183
   -0.533646    2.608531
   -0.518306    1.676974
   -0.502966    1.266718
   -0.487626    1.051127
   -0.472286    0.930028
   -0.456947    0.864814
   -0.441607    0.839387
   -0.426267    0.848459
   -0.410927    0.894326
   -0.395587    0.988187
   -0.380248    1.157731
   -0.364908    1.473232
   -0.349568    2.160044
   -0.334228    4.425692
   -0.318888   11.502042
   -0.303549   21.507992
   -0.288209   21.164612
   -0.272869   21.381502
   -0.257529   17.699637
   -0.242189   26.740993
   -0.226850   23.051495
   -0.211510   23.349076
   -0.196170   33.848153
   -0.180830   49.643495
   -0.165490   45.743199
   -0.150151   40.581445
   -0.134811   23.649156
   -0.119471    6.713108
   -0.104131    3.344900
   -0.088791    2.181003
   -0.073452    1.647249
   -0.058112    1.397967
   -0.042772    1.373136
   -0.027432    1.889220
   -0.012092    4.617853
    0.003248    4.007345
    0.018587    3.584960
    0.033927    3.514676
    0.049267    3.776758
    0.064607    4.915487
    0.079947    8.564063
    0.095286    7.692340
    0.110626    7.900317
    0.125966    8.861310
    0.141306   11.324511
    0.156646   12.652699
    0.171985   10.524168
    0.187325    9.189814
    0.202665   10.970724
    0.218005   14.868049
    0.233345   20.251109
    0.248684   27.886243
    0.264024   24.849889
    0.279364   16.746621
    0.294704   13.878717
    0.310044   16.299120
    0.325383   13.827894
    0.340723   18.185417
    0.356063   17.643156
    0.371403   17.468256
    0.386743   14.369366
    0.402082   18.904029
    0.417422   33.635858
    0.432762   40.770789
    0.448102   33.422119
    0.463442   27.872518
    0.478781   12.221396
    0.494121    8.012274
    0.509461    5.725729
    0.524801    3.064511
    0.540141    1.439108
    0.555480    0.964728
    0.570820    0.730701
    0.586160    0.586087
    0.601500    0.486848
    0.616840    0.414384
    0.632180    0.359192
    0.647519    0.315829
    0.662859    0.280929
    0.678199    0.252289
    0.693539    0.228406
    0.708879    0.208218
    0.724218    0.190955
    0.739558    0.176043
    0.754898    0.163049
    0.770238    0.151637
    0.785578    0.141545
    0.800917    0.132564
    0.816257    0.124526
    0.831597    0.117296
    0.846937    0.110762
    0.862277    0.104832
    0.877616    0.099428
    0.892956    0.094487
    0.908296    0.089953
    0.923636    0.085781
    0.938976    0.081929
    0.954315    0.078364
    0.969655    0.075057
    0.984995    0.071981
    1.000335    0.069114
    1.015675    0.066436
    1.031014    0.063929
    1.046354    0.061580
    1.061694    0.059372
    1.077034    0.057296
    1.092374    0.055339
    1.107713    0.053493
    1.123053    0.051748
    1.138393    0.050097
    1.153733    0.048533
    1.169073    0.047049
    1.184413    0.045639
    1.199752    0.044299
    1.215092    0.043024
    1.230432    0.041808
    1.245772    0.040649
    1.261112    0.039542
    1.276451    0.038485
    1.291791    0.037474
    1.307131    0.036506
    1.322471    0.035579
    1.337811    0.034691
    1.353150    0.033838
    1.368490    0.033020
    1.383830    0.032233
    1.399170    0.031478
    1.414510    0.030751
    1.429849    0.030051
    1.445189    0.029377
    1.460529    0.028727
    1.475869    0.028101
    1.491209    0.027497
    1.506548    0.026913
    1.521888    0.026350
    1.537228    0.025806
    1.552568    0.025280
    1.567908    0.024771
    1.583247    0.024279
    1.598587    0.023802
    1.613927    0.023341
    1.629267    0.022894
    1.644607    0.022460
    1.659946    0.022040
    1.675286    0.021632
    1.690626    0.021237
    1.705966    0.020853
    1.721306    0.020480
    1.736646    0.020118
    1.751985    0.019766
    1.767325    0.019424
    1.782665    0.019091
    1.798005    0.018767
