# energy [H], band-resolved DOS
   -5.854207    0.000292
   -5.838933    0.000295
   -5.823659    0.000298
   -5.808384    0.000301
   -5.793110    0.000304
   -5.777836    0.000307
   -5.762561    0.000311
   -5.747287    0.000314
   -5.732013    0.000317
   -5.716738    0.000321
   -5.701464    0.000324
   -5.686190    0.000328
   -5.670915    0.000332
   -5.655641    0.000335
   -5.640367    0.000339
   -5.625092    0.000343
   -5.609818    0.000347
   -5.594544    0.000351
   -5.579269    0.000355
   -5.563995    0.000359
   -5.548721    0.000363
   -5.533446    0.000367
   -5.518172    0.000371
   -5.502898    0.000376
   -5.487623    0.000380
   -5.472349    0.000385
   -5.457075    0.000389
   -5.441800    0.000394
   -5.426526    0.000399
   -5.411252    0.000404
   -5.395977    0.000409
   -5.380703    0.000414
   -5.365429    0.000419
   -5.350154    0.000424
   -5.334880    0.000429
   -5.319606    0.000435
   -5.304331    0.000440
   -5.289057    0.000446
   -5.273783    0.000452
   -5.258508    0.000458
   -5.243234    0.000464
   -5.227960    0.000470
   -5.212685    0.000476
   -5.197411    0.000482
   -5.182137    0.000489
   -5.166862    0.000495
   -5.151588    0.000502
   -5.136314    0.000509
   -5.121039    0.000516
   -5.105765    0.000523
   -5.090491    0.000531
   -5.075216    0.000538
   -5.059942    0.000546
   -5.044668    0.000553
   -5.029393    0.000561
   -5.014119    0.000570
   -4.998844    0.000578
   -4.983570    0.000586
   -4.968296    0.000595
   -4.953021    0.000604
   -4.937747    0.000613
   -4.922473    0.000622
   -4.907198    0.000632
   -4.891924    0.000642
   -4.876650    0.000652
   -4.861375    0.000662
   -4.846101    0.000672
   -4.830827    0.000683
   -4.815552    0.000694
   -4.800278    0.000705
   -4.785004    0.000716
   -4.769729    0.000728
   -4.754455    0.000740
   -4.739181    0.000753
   -4.723906    0.000765
   -4.708632    0.000778
   -4.693358    0.000791
   -4.678083    0.000805
   -4.662809    0.000819
   -4.647535    0.000833
   -4.632260    0.000848
   -4.616986    0.000863
   -4.601712    0.000879
   -4.586437    0.000895
   -4.571163    0.000911
   -4.555889    0.000928
   -4.540614    0.000946
   -4.525340    0.000964
   -4.510066    0.000982
   -4.494791    0.001001
   -4.479517    0.001020
   -4.464243    0.001040
   -4.448968    0.001061
   -4.433694    0.001082
   -4.418420    0.001104
   -4.403145    0.001126
   -4.387871    0.001150
   -4.372597    0.001174
   -4.357322    0.001198
   -4.342048    0.001224
   -4.326774    0.001250
   -4.311499    0.001277
   -4.296225    0.001306
   -4.280951    0.001335
   -4.265676    0.001365
   -4.250402    0.001396
   -4.235128    0.001428
   -4.219853    0.001461
   -4.204579    0.001495
   -4.189305    0.001531
   -4.174030    0.001568
   -4.158756    0.001606
   -4.143482    0.001646
   -4.128207    0.001687
   -4.112933    0.001730
   -4.097659    0.001774
   -4.082384    0.001820
   -4.067110    0.001868
   -4.051836    0.001918
   -4.036561    0.001970
   -4.021287    0.002024
   -4.006013    0.002080
   -3.990738    0.002139
   -3.975464    0.002200
   -3.960190    0.002264
   -3.944915    0.002331
   -3.929641    0.002400
   -3.914367    0.002473
   -3.899092    0.002549
   -3.883818    0.002629
   -3.868544    0.002712
   -3.853269    0.002800
   -3.837995    0.002892
   -3.822721    0.002988
   -3.807446    0.003090
   -3.792172    0.003196
   -3.776898    0.003309
   -3.761623    0.003427
   -3.746349    0.003552
   -3.731075    0.003683
   -3.715800    0.003823
   -3.700526    0.003970
   -3.685252    0.004126
   -3.669977    0.004291
   -3.654703    0.004466
   -3.639428    0.004652
   -3.624154    0.004851
   -3.608880    0.005062
   -3.593605    0.005287
   -3.578331    0.005528
   -3.563057    0.005785
   -3.547782    0.006061
   -3.532508    0.006357
   -3.517234    0.006675
   -3.501959    0.007018
   -3.486685    0.007388
   -3.471411    0.007788
   -3.456136    0.008221
   -3.440862    0.008692
   -3.425588    0.009204
   -3.410313    0.009762
   -3.395039    0.010374
   -3.379765    0.011044
   -3.364490    0.011781
   -3.349216    0.012595
   -3.333942    0.013497
   -3.318667    0.014498
   -3.303393    0.015615
   -3.288119    0.016867
   -3.272844    0.018275
   -3.257570    0.019868
   -3.242296    0.021677
   -3.227021    0.023746
   -3.211747    0.026126
   -3.196473    0.028882
   -3.181198    0.032098
   -3.165924    0.035882
   -3.150650    0.040378
   -3.135375    0.045774
   -3.120101    0.052328
   -3.104827    0.060396
   -3.089552    0.070485
   -3.074278    0.083327
   -3.059004    0.100024
   -3.043729    0.122287
   -3.028455    0.152891
   -3.013181    0.196580
   -2.997906    0.262013
   -2.982632    0.366373
   -2.967358    0.547780
   -2.952083    0.905077
   -2.936809    1.762284
   -2.921535    4.689299
   -2.906260   23.637722
   -2.890986   18.321336
   -2.875712    3.998578
   -2.860437    1.590225
   -2.845163    0.839748
   -2.829889    0.516512
   -2.814614    0.349097
   -2.799340    0.251494
   -2.784066    0.189711
   -2.768791    0.148162
   -2.753517    0.118895
   -2.738243    0.097509
   -2.722968    0.081411
   -2.707694    0.068992
   -2.692420    0.059211
   -2.677145    0.051370
   -2.661871    0.044990
   -2.646597    0.039728
   -2.631322    0.035337
   -2.616048    0.031636
   -2.600774    0.028488
   -2.585499    0.025786
   -2.570225    0.023452
   -2.554951    0.021421
   -2.539676    0.019642
   -2.524402    0.018076
   -2.509128    0.016691
   -2.493853    0.015458
   -2.478579    0.014358
   -2.463305    0.013370
   -2.448030    0.012481
   -2.432756    0.011678
   -2.417482    0.010950
   -2.402207    0.010288
   -2.386933    0.009685
   -2.371659    0.009133
   -2.356384    0.008626
   -2.341110    0.008161
   -2.325836    0.007732
   -2.310561    0.007337
   -2.295287    0.006971
   -2.280012    0.006631
   -2.264738    0.006316
   -2.249464    0.006023
   -2.234189    0.005750
   -2.218915    0.005495
   -2.203641    0.005256
   -2.188366    0.005033
   -2.173092    0.004823
   -2.157818    0.004627
   -2.142543    0.004442
   -2.127269    0.004268
   -2.111995    0.004104
   -2.096720    0.003950
   -2.081446    0.003803
   -2.066172    0.003665
   -2.050897    0.003535
   -2.035623    0.003411
   -2.020349    0.003293
   -2.005074    0.003182
   -1.989800    0.003076
   -1.974526    0.002975
   -1.959251    0.002879
   -1.943977    0.002788
   -1.928703    0.002701
   -1.913428    0.002618
   -1.898154    0.002539
   -1.882880    0.002463
   -1.867605    0.002391
   -1.852331    0.002321
   -1.837057    0.002255
   -1.821782    0.002192
   -1.806508    0.002131
   -1.791234    0.002073
   -1.775959    0.002017
   -1.760685    0.001963
   -1.745411    0.001911
   -1.730136    0.001862
   -1.714862    0.001814
   -1.699588    0.001768
   -1.684313    0.001724
   -1.669039    0.001681
   -1.653765    0.001640
   -1.638490    0.001601
   -1.623216    0.001563
   -1.607942    0.001526
   -1.592667    0.001491
   -1.577393    0.001456
   -1.562119    0.001423
   -1.546844    0.001391
   -1.531570    0.001361
   -1.516296    0.001331
   -1.501021    0.001302
   -1.485747    0.001274
   -1.470473    0.001247
   -1.455198    0.001220
   -1.439924    0.001195
   -1.424650    0.001170
   -1.409375    0.001147
   -1.394101    0.001123
   -1.378827    0.001101
   -1.363552    0.001079
   -1.348278    0.001058
   -1.333004    0.001038
   -1.317729    0.001018
   -1.302455    0.000998
   -1.287181    0.000979
   -1.271906    0.000961
   -1.256632    0.000943
   -1.241358    0.000926
   -1.226083    0.000909
   -1.210809    0.000893
   -1.195535    0.000877
   -1.180260    0.000861
   -1.164986    0.000846
   -1.149712    0.000832
   -1.134437    0.000817
   -1.119163    0.000803
   -1.103889    0.000790
   -1.088614    0.000776
   -1.073340    0.000763
   -1.058066    0.000751
   -1.042791    0.000739
   -1.027517    0.000727
   -1.012243    0.000715
   -0.996968    0.000703
   -0.981694    0.000692
   -0.966420    0.000681
   -0.951145    0.000671
   -0.935871    0.000660
   -0.920596    0.000650
   -0.905322    0.000640
   -0.890048    0.000631
   -0.874773    0.000621
   -0.859499    0.000612
   -0.844225    0.000603
   -0.828950    0.000594
   -0.813676    0.000585
   -0.798402    0.000577
   -0.783127    0.000568
   -0.767853    0.000560
   -0.752579    0.000552
   -0.737304    0.000545
   -0.722030    0.000537
   -0.706756    0.000530
   -0.691481    0.000522
   -0.676207    0.000515
   -0.660933    0.000508
   -0.645658    0.000501
   -0.630384    0.000494
   -0.615110    0.000488
   -0.599835    0.000481
   -0.584561    0.000475
   -0.569287    0.000469
   -0.554012    0.000463
   -0.538738    0.000457
   -0.523464    0.000451
   -0.508189    0.000445
   -0.492915    0.000440
   -0.477641    0.000434
   -0.462366    0.000429
   -0.447092    0.000423
   -0.431818    0.000418
   -0.416543    0.000413
   -0.401269    0.000408
   -0.385995    0.000403
   -0.370720    0.000398
   -0.355446    0.000393
   -0.340172    0.000389
   -0.324897    0.000384
   -0.309623    0.000380
   -0.294349    0.000375
   -0.279074    0.000371
   -0.263800    0.000367
   -0.248526    0.000362
   -0.233251    0.000358
   -0.217977    0.000354
   -0.202703    0.000350
   -0.187428    0.000346
   -0.172154    0.000342
   -0.156880    0.000338
   -0.141605    0.000335
   -0.126331    0.000331
   -0.111057    0.000327
   -0.095782    0.000324
   -0.080508    0.000320
   -0.065234    0.000317
   -0.049959    0.000314
   -0.034685    0.000310
   -0.019411    0.000307
   -0.004136    0.000304
    0.011138    0.000301
    0.026412    0.000297
    0.041687    0.000294
    0.056961    0.000291
    0.072235    0.000288
    0.087510    0.000285
    0.102784    0.000282
    0.118058    0.000280
    0.133333    0.000277
    0.148607    0.000274
    0.163881    0.000271
    0.179156    0.000269
    0.194430    0.000266
    0.209704    0.000263
    0.224979    0.000261
    0.240253    0.000258
    0.255527    0.000256
    0.270802    0.000253
    0.286076    0.000251
    0.301350    0.000249
    0.316625    0.000246
    0.331899    0.000244
    0.347173    0.000242
    0.362448    0.000239
    0.377722    0.000237
    0.392996    0.000235
    0.408271    0.000233
    0.423545    0.000231
    0.438820    0.000228
    0.454094    0.000226
    0.469368    0.000224
    0.484643    0.000222
    0.499917    0.000220
    0.515191    0.000218
    0.530466    0.000216
    0.545740    0.000215
    0.561014    0.000213
    0.576289    0.000211
    0.591563    0.000209
    0.606837    0.000207
    0.622112    0.000205
    0.637386    0.000204
    0.652660    0.000202
    0.667935    0.000200
    0.683209    0.000198
    0.698483    0.000197
    0.713758    0.000195
    0.729032    0.000193
    0.744306    0.000192
    0.759581    0.000190
    0.774855    0.000189
    0.790129    0.000187
    0.805404    0.000186
    0.820678    0.000184
    0.835952    0.000182
    0.851227    0.000181
    0.866501    0.000180
    0.881775    0.000178
    0.897050    0.000177
    0.912324    0.000175
    0.927598    0.000174
    0.942873    0.000172
    0.958147    0.000171
    0.973421    0.000170
    0.988696    0.000168
    1.003970    0.000167
    1.019244    0.000166
    1.034519    0.000165
    1.049793    0.000163
    1.065067    0.000162
    1.080342    0.000161
    1.095616    0.000160
    1.110890    0.000158
    1.126165    0.000157
    1.141439    0.000156
    1.156713    0.000155
    1.171988    0.000154
    1.187262    0.000152
    1.202536    0.000151
    1.217811    0.000150
    1.233085    0.000149
    1.248359    0.000148
    1.263634    0.000147
    1.278908    0.000146
    1.294182    0.000145
    1.309457    0.000144
    1.324731    0.000143
    1.340005    0.000142
    1.355280    0.000141
    1.370554    0.000140
    1.385828    0.000139
    1.401103    0.000138
    1.416377    0.000137
    1.431651    0.000136
    1.446926    0.000135
    1.462200    0.000134
    1.477474    0.000133
    1.492749    0.000132
    1.508023    0.000131
    1.523297    0.000130
    1.538572    0.000129
    1.553846    0.000128
    1.569120    0.000128
    1.584395    0.000127
    1.599669    0.000126
    1.614943    0.000125
    1.630218    0.000124
    1.645492    0.000123
    1.660766    0.000122
    1.676041    0.000122
    1.691315    0.000121
    1.706589    0.000120
    1.721864    0.000119
    1.737138    0.000118
    1.752412    0.000118
    1.767687    0.000117
